Time[s]	L_material	R_material
0.0	0.92	0.04
0.1524345982985396	0.92	0.04
0.3048691965970792	0.9199491884672338	0.04009000900090009
0.4573037948956188	0.9198983769344676	0.04018001800180018
0.6097383931941583	0.9198475654017015	0.04027002700270027
0.7621729914926979	0.9197967538689353	0.04036003600360036
0.9146075897912376	0.9197459423361691	0.04045004500450045
1.0670421880897771	0.9196951308034029	0.04054005400540054
1.2194767863883167	0.9196443192706368	0.04063006300630063
1.3719113846868563	0.9195935077378706	0.04072007200720072
1.5243459829853958	0.9195426962051044	0.04081008100810081
1.6767805812839354	0.9194918846723382	0.040900090009000904
1.8292151795824751	0.919441073139572	0.04099009900990099
1.9816497778810147	0.9193902616068059	0.04108010801080108
2.1340843761795543	0.9193394500740397	0.041170117011701174
2.286518974478094	0.9192886385412735	0.04126012601260126
2.4389535727766334	0.9192378270085073	0.04135013501350135
2.591388171075173	0.9191870154757411	0.041440144014401444
2.7438227693737125	0.919136203942975	0.04153015301530153
2.896257367672252	0.9190853924102088	0.04162016201620162
3.0486919659707916	0.9190345808774426	0.04171017101710171
3.201126564269331	0.9189837693446764	0.0418001800180018
3.3535611625678707	0.9189329578119103	0.04189018901890189
3.5059957608664103	0.9188821462791441	0.04198019801980198
3.6584303591649503	0.9188313347463779	0.04207020702070207
3.81086495746349	0.9187805232136117	0.04216021602160216
3.9632995557620294	0.9187297116808455	0.04225022502250225
4.1157341540605685	0.9186789001480794	0.04234023402340234
4.2681687523591085	0.9186280886153132	0.04243024302430243
4.420603350657648	0.918577277082547	0.04252025202520252
4.573037948956188	0.9185264655497808	0.04261026102610261
4.725472547254727	0.9184756540170147	0.042700270027002704
4.877907145553267	0.9184248424842485	0.04279027902790279
5.030341743851807	0.9183740309514823	0.04288028802880288
5.182776342150346	0.9183232194187161	0.042970297029702974
5.335210940448886	0.9182724078859499	0.04306030603060306
5.487645538747425	0.9182215963531838	0.04315031503150315
5.640080137045965	0.9181707848204176	0.04324032403240324
5.792514735344504	0.9181199732876514	0.04333033303330333
5.944949333643044	0.9180691617548852	0.04342034203420342
6.097383931941583	0.918018350222119	0.04351035103510351
6.249818530240123	0.9179675386893529	0.0436003600360036
6.402253128538662	0.9179167271565867	0.043690369036903695
6.554687726837202	0.9178659156238205	0.04378037803780378
6.7071223251357415	0.9178151040910543	0.04387038703870387
6.8595569234342815	0.9177642925582882	0.043960396039603965
7.011991521732821	0.917713481025522	0.04405040504050405
7.164426120031361	0.9176626694927558	0.04414041404140414
7.316860718329901	0.9176118579599896	0.044230423042304234
7.46929531662844	0.9175610464272234	0.04432043204320432
7.62172991492698	0.9175102348944573	0.04441044104410441
7.774164513225519	0.9174594233616911	0.044500450045004504
7.926599111524059	0.9174086118289249	0.04459045904590459
8.079033709822598	0.9173578002961587	0.044680468046804686
8.231468308121137	0.9173069887633926	0.044770477047704774
8.383902906419678	0.9172561772306264	0.04486048604860486
8.536337504718217	0.9172053656978602	0.044950495049504956
8.688772103016756	0.917154554165094	0.04504050405040504
8.841206701315295	0.9171037426323277	0.04513051305130513
8.993641299613836	0.9170529310995617	0.045220522052205225
9.146075897912375	0.9170021195667954	0.04531053105310531
9.298510496210914	0.9169513080340292	0.0454005400540054
9.450945094509454	0.916900496501263	0.045490549054905495
9.603379692807994	0.9168496849684968	0.04558055805580558
9.755814291106534	0.9167988734357307	0.04567056705670568
9.908248889405073	0.9167480619029645	0.045760576057605765
10.060683487703614	0.9166972503701983	0.04585058505850585
10.213118086002153	0.9166464388374321	0.04594059405940594
10.365552684300692	0.916595627304666	0.046030603060306034
10.51798728259923	0.9165448157718998	0.04612061206120612
10.670421880897772	0.9164940042391336	0.04621062106210621
10.82285647919631	0.9164431927063674	0.046300630063006304
10.97529107749485	0.9163923811736012	0.04639063906390639
11.12772567579339	0.9163415696408351	0.046480648064806486
11.28016027409193	0.9162907581080689	0.046570657065706574
11.43259487239047	0.9162399465753027	0.04666066606660666
11.585029470689008	0.9161891350425365	0.046750675067506756
11.737464068987547	0.9161383235097704	0.04684068406840684
11.889898667286088	0.9160875119770042	0.04693069306930693
12.042333265584627	0.916036700444238	0.047020702070207025
12.194767863883166	0.9159858889114718	0.04711071107110711
12.347202462181707	0.9159350773787056	0.0472007200720072
12.499637060480246	0.9158842658459395	0.047290729072907295
12.652071658778786	0.9158334543131733	0.04738073807380738
12.804506257077325	0.9157826427804071	0.04747074707470748
12.956940855375866	0.9157318312476409	0.047560756075607565
13.109375453674405	0.9156810197148747	0.04765076507650765
13.261810051972944	0.9156302081821086	0.04774077407740775
13.414244650271483	0.9155793966493424	0.047830783078307834
13.566679248570024	0.9155285851165762	0.04792079207920792
13.719113846868563	0.91547777358381	0.048010801080108016
13.871548445167102	0.9154269620510439	0.048100810081008104
14.023983043465641	0.9153761505182777	0.0481908190819082
14.176417641764182	0.9153253389855115	0.048280828082808286
14.328852240062721	0.9152745274527453	0.04837083708370837
14.48128683836126	0.9152237159199791	0.04846084608460846
14.633721436659801	0.915172904387213	0.048550855085508555
14.78615603495834	0.9151220928544468	0.04864086408640864
14.93859063325688	0.9150712813216806	0.04873087308730874
15.091025231555419	0.9150204697889144	0.048820882088208825
15.24345982985396	0.9149696582561483	0.04891089108910891
15.395894428152499	0.9149188467233821	0.049000900090009
15.548329026451038	0.9148680351906159	0.049090909090909095
15.700763624749577	0.9148172236578497	0.04918091809180918
15.853198223048118	0.9147664121250835	0.04927092709270928
16.005632821346655	0.9147156005923174	0.049360936093609364
16.158067419645196	0.9146647890595512	0.04945094509450945
16.310502017943737	0.914613977526785	0.04954095409540954
16.462936616242274	0.9145631659940188	0.049630963096309634
16.615371214540815	0.9145123544612526	0.049720972097209715
16.767805812839356	0.9144615429284865	0.04981098109810981
16.920240411137893	0.9144107313957203	0.0499009900990099
17.072675009436434	0.9143599198629541	0.049990999099909984
17.225109607734975	0.9143091083301879	0.050081008100810086
17.377544206033512	0.9142582967974218	0.05017101710171017
17.529978804332053	0.9142074852646556	0.05026102610261027
17.68241340263059	0.9141566737318894	0.050351035103510355
17.83484800092913	0.9141058621991232	0.05044104410441044
17.987282599227672	0.914055050666357	0.05053105310531053
18.13971719752621	0.9140042391335909	0.050621062106210625
18.29215179582475	0.9139534276008247	0.050711071107110706
18.44458639412329	0.9139026160680584	0.05080108010801081
18.59702099242183	0.9138518045352922	0.050891089108910895
18.74945559072037	0.9138009930025262	0.05098109810981098
18.901890189018907	0.91375018146976	0.05107110711071107
19.054324787317448	0.9136993699369937	0.051161116111611164
19.20675938561599	0.9136485584042275	0.05125112511251125
19.359193983914526	0.9135977468714613	0.05134113411341134
19.511628582213067	0.9135469353386952	0.05143114311431143
19.664063180511608	0.913496123805929	0.05152115211521152
19.816497778810145	0.9134453122731628	0.051611161116111616
19.968932377108686	0.9133945007403966	0.051701170117011704
20.121366975407227	0.9133436892076304	0.0517911791179118
20.273801573705764	0.9132928776748643	0.051881188118811886
20.426236172004305	0.9132420661420981	0.05197119711971197
20.578670770302843	0.9131912546093319	0.05206120612061206
20.731105368601384	0.9131404430765657	0.052151215121512155
20.883539966899924	0.9130896315437996	0.05224122412241224
21.03597456519846	0.9130388200110334	0.05233123312331234
21.188409163497003	0.9129880084782672	0.052421242124212425
21.340843761795544	0.912937196945501	0.05251125112511251
21.49327836009408	0.9128863854127348	0.0526012601260126
21.64571295839262	0.9128355738799687	0.052691269126912695
21.79814755669116	0.9127847623472025	0.05278127812781278
21.9505821549897	0.9127339508144363	0.05287128712871288
22.10301675328824	0.9126831392816701	0.052961296129612964
22.25545135158678	0.9126323277489039	0.05305130513051305
22.40788594988532	0.9125815162161378	0.05314131413141314
22.56032054818386	0.9125307046833716	0.053231323132313234
22.712755146482397	0.9124798931506054	0.05332133213321333
22.86518974478094	0.9124290816178392	0.053411341134113416
23.01762434307948	0.9123782700850731	0.05350135013501351
23.170058941378016	0.9123274585523069	0.0535913591359136
23.322493539676557	0.9122766470195407	0.053681368136813686
23.474928137975095	0.9122258354867745	0.05377137713771377
23.627362736273636	0.9121750239540083	0.05386138613861386
23.779797334572176	0.9121242124212422	0.053951395139513955
23.932231932870714	0.912073400888476	0.05404140414041405
24.084666531169255	0.9120225893557098	0.05413141314131414
24.237101129467796	0.9119717778229436	0.054221422142214225
24.389535727766333	0.9119209662901775	0.05431143114311431
24.541970326064874	0.9118701547574113	0.0544014401440144
24.694404924363415	0.9118193432246451	0.054491449144914494
24.846839522661952	0.9117685316918789	0.05458145814581459
24.999274120960493	0.9117177201591127	0.05467146714671467
25.15170871925903	0.9116669086263466	0.054761476147614764
25.30414331755757	0.9116160970935804	0.05485148514851486
25.456577915856112	0.9115652855608142	0.054941494149414946
25.60901251415465	0.911514474028048	0.055031503150315034
25.76144711245319	0.9114636624952819	0.05512151215121512
25.91388171075173	0.9114128509625157	0.05521152115211521
26.06631630905027	0.9113620394297495	0.0553015301530153
26.21875090734881	0.9113112278969833	0.0553915391539154
26.371185505647347	0.9112604163642171	0.055481548154815485
26.523620103945888	0.911209604831451	0.05557155715571557
26.67605470224443	0.9111587932986848	0.05566156615661566
26.828489300542966	0.9111079817659186	0.055751575157515755
26.980923898841507	0.9110571702331524	0.05584158415841585
27.133358497140048	0.9110063587003862	0.05593159315931594
27.285793095438585	0.9109555471676201	0.056021602160216025
27.438227693737126	0.9109047356348539	0.05611161116111611
27.590662292035667	0.9108539241020877	0.05620162016201621
27.743096890334204	0.9108031125693214	0.0562916291629163
27.895531488632745	0.9107523010365554	0.05638163816381639
28.047966086931282	0.9107014895037892	0.056471647164716476
28.200400685229823	0.910650677971023	0.056561656165616564
28.352835283528364	0.9105998664382567	0.05665166516651665
28.5052698818269	0.9105490549054905	0.056741674167416746
28.657704480125442	0.9104982433727244	0.056831683168316834
28.810139078423983	0.9104474318399582	0.05692169216921692
28.96257367672252	0.910396620307192	0.057011701170117016
29.11500827502106	0.9103458087744258	0.0571017101710171
29.267442873319602	0.9102949972416596	0.05719171917191719
29.41987747161814	0.9102441857088935	0.05728172817281728
29.57231206991668	0.9101933741761273	0.05737173717371737
29.724746668215218	0.9101425626433611	0.05746174617461747
29.87718126651376	0.9100917511105949	0.057551755175517555
30.0296158648123	0.9100409395778288	0.05764176417641764
30.182050463110837	0.9099901280450626	0.05773177317731774
30.334485061409378	0.9099393165122964	0.05782178217821782
30.48691965970792	0.9098885049795302	0.057911791179117905
30.639354258006456	0.909837693446764	0.05800180018001801
30.791788856304997	0.9097868819139979	0.058091809180918094
30.944223454603534	0.9097360703812317	0.05818181818181818
31.096658052902075	0.9096852588484655	0.05827182718271827
31.249092651200616	0.9096344473156993	0.058361836183618364
31.401527249499154	0.9095836357829332	0.05845184518451845
31.553961847797694	0.909532824250167	0.058541854185418546
31.706396446096235	0.9094820127174008	0.05863186318631863
31.858831044394773	0.9094312011846346	0.05872187218721873
32.01126564269331	0.9093803896518684	0.058811881188118816
32.16370024099185	0.9093295781191023	0.0589018901890189
32.31613483929039	0.9092787665863361	0.05899189918991899
32.46856943758893	0.9092279550535699	0.059081908190819085
32.62100403588747	0.9091771435208037	0.05917191719171917
32.773438634186014	0.9091263319880375	0.05926192619261926
32.92587323248455	0.9090755204552714	0.05935193519351935
33.07830783078309	0.9090247089225052	0.05944194419441945
33.23074242908163	0.908973897389739	0.05953195319531953
33.38317702738017	0.9089230858569728	0.059621962196219624
33.53561162567871	0.9088722743242067	0.05971197119711971
33.688046223977246	0.9088214627914405	0.0598019801980198
33.84048082227579	0.9087706512586743	0.05989198919891989
33.99291542057433	0.9087198397259081	0.05998199819981998
34.14535001887287	0.9086690281931419	0.060072007200720076
34.29778461717141	0.9086182166603758	0.060162016201620164
34.45021921546995	0.9085674051276096	0.060252025202520265
34.602653813768484	0.9085165935948434	0.060342034203420346
34.755088412067025	0.9084657820620772	0.06043204320432043
34.907523010365566	0.9084149705293111	0.06052205220522052
35.05995760866411	0.9083641589965449	0.060612061206120615
35.21239220696265	0.9083133474637787	0.0607020702070207
35.36482680526118	0.9082625359310125	0.06079207920792079
35.51726140355972	0.9082117243982463	0.06088208820882089
35.66969600185826	0.9081609128654802	0.06097209720972098
35.822130600156804	0.908110101332714	0.06106210621062107
35.974565198455345	0.9080592897999478	0.061152115211521155
36.12699979675388	0.9080084782671816	0.06124212421242124
36.27943439505242	0.9079576667344154	0.06133213321332133
36.43186899335096	0.9079068552016493	0.061422142214221424
36.5843035916495	0.9078560436688831	0.06151215121512151
36.73673818994804	0.9078052321361169	0.06160216021602161
36.88917278824658	0.9077544206033507	0.0616921692169217
37.04160738654512	0.9077036090705846	0.06178217821782179
37.19404198484366	0.9076527975378184	0.061872187218721876
37.3464765831422	0.9076019860050522	0.06196219621962197
37.49891118144074	0.907551174472286	0.06205220522052206
37.65134577973928	0.9075003629395197	0.062142214221422146
37.803780378037814	0.9074495514067537	0.06223222322232223
37.956214976336355	0.9073987398739874	0.062322232223222335
38.108649574634896	0.9073479283412212	0.06241224122412242
38.26108417293344	0.907297116808455	0.06250225022502251
38.41351877123198	0.907246305275689	0.0625922592259226
38.56595336953052	0.9071954937429227	0.06268226822682268
38.71838796782905	0.9071446822101565	0.06277227722772279
38.87082256612759	0.9070938706773903	0.06286228622862287
39.023257164426134	0.9070430591446241	0.06295229522952296
39.175691762724675	0.906992247611858	0.06304230423042305
39.328126361023216	0.9069414360790918	0.06313231323132314
39.48056095932175	0.9068906245463256	0.06322232223222322
39.63299555762029	0.9068398130135594	0.06331233123312331
39.78543015591883	0.9067890014807933	0.06340234023402341
39.93786475421737	0.9067381899480271	0.0634923492349235
40.09029935251591	0.9066873784152609	0.06358235823582359
40.242733950814454	0.9066365668824947	0.06367236723672368
40.39516854911299	0.9065857553497285	0.06376237623762376
40.54760314741153	0.9065349438169624	0.06385238523852385
40.70003774571007	0.9064841322841962	0.06394239423942395
40.85247234400861	0.90643332075143	0.06403240324032404
41.00490694230715	0.9063825092186638	0.06412241224122413
41.157341540605685	0.9063316976858976	0.06421242124212422
41.309776138904226	0.9062808861531315	0.0643024302430243
41.46221073720277	0.9062300746203653	0.0643924392439244
41.61464533550131	0.9061792630875991	0.06448244824482449
41.76707993379985	0.9061284515548329	0.06457245724572458
41.91951453209839	0.9060776400220668	0.06466246624662467
42.07194913039692	0.9060268284893006	0.06475247524752475
42.224383728695464	0.9059760169565344	0.06484248424842484
42.376818326994005	0.9059252054237682	0.06493249324932493
42.529252925292546	0.905874393891002	0.06502250225022503
42.68168752359109	0.9058235823582359	0.06511251125112512
42.83412212188962	0.9057727708254697	0.0652025202520252
42.98655672018816	0.9057219592927035	0.0652925292529253
43.1389913184867	0.9056711477599373	0.0653825382538254
43.29142591678524	0.9056203362271711	0.06547254725472548
43.443860515083784	0.905569524694405	0.06556255625562557
43.59629511338232	0.9055187131616388	0.06565256525652566
43.74872971168086	0.9054679016288726	0.06574257425742575
43.9011643099794	0.9054170900961064	0.06583258325832583
44.05359890827794	0.9053662785633403	0.06592259225922592
44.20603350657648	0.9053154670305741	0.06601260126012601
44.35846810487502	0.9052646554978079	0.06610261026102611
44.51090270317356	0.9052138439650417	0.0661926192619262
44.6633373014721	0.9051630324322755	0.06628262826282628
44.81577189977064	0.9051122208995094	0.06637263726372637
44.96820649806918	0.9050614093667432	0.06646264626462647
45.12064109636772	0.905010597833977	0.06655265526552656
45.273075694666254	0.9049597863012108	0.06664266426642665
45.425510292964795	0.9049089747684447	0.06673267326732674
45.577944891263336	0.9048581632356785	0.06682268226822682
45.73037948956188	0.9048073517029123	0.06691269126912691
45.88281408786042	0.9047565401701461	0.067002700270027
46.03524868615896	0.9047057286373799	0.0670927092709271
46.18768328445749	0.9046549171046138	0.06718271827182719
46.34011788275603	0.9046041055718476	0.06727272727272728
46.492552481054574	0.9045532940390814	0.06736273627362736
46.644987079353115	0.9045024825063152	0.06745274527452745
46.797421677651656	0.904451670973549	0.06754275427542755
46.94985627595019	0.9044008594407829	0.06763276327632764
47.10229087424873	0.9043500479080167	0.06772277227722773
47.25472547254727	0.9042992363752504	0.06781278127812781
47.40716007084581	0.9042484248424842	0.0679027902790279
47.55959466914435	0.9041976133097182	0.067992799279928
47.712029267442894	0.904146801776952	0.06808280828082808
47.86446386574143	0.9040959902441857	0.06817281728172818
48.01689846403997	0.9040451787114195	0.06826282628262827
48.16933306233851	0.9039943671786533	0.06835283528352835
48.32176766063705	0.9039435556458872	0.06844284428442844
48.47420225893559	0.903892744113121	0.06853285328532854
48.626636857234125	0.9038419325803548	0.06862286228622863
48.779071455532666	0.9037911210475886	0.06871287128712872
48.93150605383121	0.9037403095148224	0.0688028802880288
49.08394065212975	0.9036894979820563	0.0688928892889289
49.23637525042829	0.9036386864492901	0.06898289828982898
49.38880984872683	0.9035878749165239	0.06907290729072907
49.54124444702536	0.9035370633837577	0.06916291629162917
49.693679045323904	0.9034862518509916	0.06925292529252924
49.846113643622445	0.9034354403182254	0.06934293429342935
49.998548241920986	0.9033846287854592	0.06943294329432943
50.15098284021953	0.903333817252693	0.06952295229522953
50.30341743851806	0.9032830057199268	0.06961296129612962
50.4558520368166	0.9032321941871607	0.0697029702970297
50.60828663511514	0.9031813826543945	0.0697929792979298
50.76072123341368	0.9031305711216283	0.06988298829882988
50.913155831712224	0.9030797595888621	0.06997299729972997
51.06559043001076	0.903028948056096	0.07006300630063006
51.2180250283093	0.9029781365233298	0.07015301530153015
51.37045962660784	0.9029273249905636	0.07024302430243023
51.52289422490638	0.9028765134577974	0.07033303330333032
51.67532882320492	0.9028257019250312	0.07042304230423042
51.82776342150346	0.9027748903922651	0.07051305130513053
51.980198019801996	0.9027240788594989	0.07060306030603061
52.13263261810054	0.9026732673267327	0.07069306930693069
52.28506721639908	0.9026224557939665	0.07078307830783079
52.43750181469762	0.9025716442612004	0.07087308730873088
52.58993641299616	0.9025208327284342	0.07096309630963096
52.74237101129469	0.902470021195668	0.07105310531053105
52.894805609593234	0.9024192096629018	0.07114311431143114
53.047240207891775	0.9023683981301356	0.07123312331233124
